num crossings	time (s)	maj axis (mm)	min axis (mm)	theta (rad )	slope (V/s)
2253	3171.671325	40.218096	11.565635	0.187658	6.117191
2255	3173.746062	40.237911	11.512422	0.188205	6.208363
2259	3177.892709	40.209831	11.408169	0.190610	6.077936
2261	3179.964039	40.214741	11.341110	0.191928	6.037953
2263	3182.035444	40.175649	11.284829	0.193512	6.283987
2265	3184.106519	40.188776	11.220714	0.195178	6.149000
2269	3188.249186	40.112146	11.101531	0.198287	6.010939
2271	3190.319117	40.092210	11.029058	0.200600	5.787988
2273	3192.389304	40.099309	10.985199	0.200586	5.939858
2275	3194.456840	40.095383	10.945203	0.201117	6.046665
2279	3198.590728	40.013247	10.784456	0.200298	6.099377
2281	3200.658442	39.940571	10.726738	0.198883	5.407419
2283	3202.726267	39.818615	10.685545	0.198334	6.163640
2285	3204.794914	39.724266	10.627000	0.199358	5.727524
2289	3208.938288	39.584493	10.523374	0.204431	5.659238
2291	3211.010811	39.561563	10.473502	0.206690	5.920257
2293	3213.081971	39.558330	10.424832	0.209168	5.719969
2295	3215.151156	39.532683	10.384218	0.210983	5.720843
2299	3219.292110	39.404770	10.285129	0.214360	5.813373
2301	3221.363551	39.345012	10.229850	0.214769	5.752746
2303	3223.435457	39.306999	10.163440	0.214570	5.526283
2305	3225.509945	39.218124	10.114951	0.213836	5.649992
2307	3227.584446	39.237151	10.054643	0.213252	5.600517
2309	3229.659085	39.199849	10.002471	0.213300	5.602556
2311	3231.733312	39.263232	9.944514	0.213336	5.797434
2315	3235.879016	39.203240	9.840795	0.215711	5.774800
2317	3237.950982	39.138540	9.780775	0.217861	5.693204
2319	3240.022654	39.207760	9.728657	0.218177	5.652694
2321	3242.092980	39.191289	9.668878	0.219552	5.619036
2325	3246.230412	39.143678	9.552194	0.221189	5.705555
2327	3248.301584	39.119835	9.495378	0.221626	5.427104
2329	3250.369025	39.114151	9.428943	0.221181	5.737076
2331	3252.436396	38.963963	9.375213	0.221512	5.691350
2335	3256.570885	38.863340	9.272439	0.219433	5.634151
2337	3258.641292	38.774851	9.231906	0.220454	5.641492
2339	3260.712068	38.700488	9.178801	0.221425	5.671902
2341	3262.783966	38.667092	9.127623	0.223684	5.570685
2343	3264.855441	38.569578	9.091681	0.226966	5.461414
2347	3268.996201	38.603173	8.991650	0.230383	5.389264
2349	3271.066899	38.506644	8.946690	0.231980	5.549435
2351	3273.136875	38.449103	8.892370	0.234033	5.406811
2353	3275.207516	38.430714	8.838640	0.233857	5.670256
2355	3277.279872	38.386529	8.784166	0.233878	5.346183
2359	3281.428609	38.326921	8.672397	0.231852	5.427592
2361	3283.503160	38.294131	8.615232	0.231183	5.450375
2363	3285.575350	38.267237	8.573301	0.231481	5.500958
2365	3287.648011	38.261398	8.523149	0.232413	5.300931
2369	3291.793238	38.299989	8.420449	0.233994	5.336432
2371	3293.863685	38.282267	8.361192	0.235088	5.426311
2373	3295.932864	38.243580	8.307394	0.235995	5.632838
2375	3298.003873	38.169049	8.253887	0.237716	5.586424
2379	3302.139343	38.190952	8.140253	0.236592	5.347861
2381	3304.207105	38.141158	8.086266	0.235720	5.307354
2383	3306.274863	38.039928	8.045831	0.234991	5.509063
2385	3308.343207	37.916441	8.002246	0.235119	5.526804
2389	3312.484174	37.776816	7.926745	0.238202	5.278421
2391	3314.555101	37.765664	7.881328	0.239944	5.130324
2393	3316.627712	37.709101	7.837554	0.242447	5.322597
2395	3318.698359	37.712548	7.799071	0.243961	5.246485
2399	3322.837420	37.638280	7.715754	0.246797	5.240524
2401	3324.908453	37.537839	7.664130	0.248416	5.196029
2403	3326.980936	37.515180	7.604034	0.248255	5.306294
2405	3329.052448	37.439426	7.566768	0.248079	4.955921
2407	3331.125217	37.392019	7.512913	0.247026	5.594394
2409	3333.201303	37.410978	7.448666	0.246112	4.998682
2413	3337.348706	37.399230	7.359862	0.246275	5.379134
2415	3339.420335	37.398210	7.312298	0.246894	5.065646
2417	3341.493433	37.394275	7.261711	0.247813	5.306354
2419	3343.564455	37.331938	7.224622	0.248499	5.003132
2423	3347.704205	37.335804	7.108536	0.249727	5.042706
2425	3349.772609	37.309434	7.055509	0.249757	5.373748
2427	3351.840679	37.271119	7.012607	0.248997	5.053934
2429	3353.906358	37.235503	6.946717	0.248237	5.308059
2433	3358.043791	37.067608	6.869151	0.247418	5.248457
2435	3360.114524	36.993701	6.819938	0.248233	5.083588
2437	3362.184938	36.927714	6.783631	0.249431	5.447763
2439	3364.257275	36.923771	6.740516	0.251657	4.983320
2443	3368.399296	36.829593	6.658947	0.255069	4.949712
2445	3370.468740	36.805567	6.613518	0.256523	4.779782
2447	3372.538344	36.769071	6.570764	0.257724	5.288128
2449	3374.609182	36.713534	6.519102	0.258396	4.658938
2453	3378.753185	36.616765	6.426507	0.258458	4.884127
2455	3380.826841	36.528109	6.388739	0.257627	5.232484
2457	3382.901141	36.543870	6.332577	0.257196	4.963597
2459	3384.974603	36.543024	6.293476	0.257589	4.959168
2461	3387.048128	36.465588	6.237805	0.257207	5.116111
2465	3391.192445	36.465539	6.156011	0.258099	4.910377
2467	3393.261021	36.447710	6.110593	0.258817	4.821062
2469	3395.332219	36.452902	6.056074	0.259227	5.056130
2471	3397.401358	36.430541	6.009547	0.259403	5.096526
2475	3401.538238	36.370562	5.906255	0.258877	5.278772
2477	3403.606209	36.273556	5.868508	0.258617	4.960840
2479	3405.674472	36.242606	5.827079	0.257406	4.836183
2481	3407.744289	36.125044	5.784674	0.257344	4.957941
2485	3411.885187	36.028940	5.707733	0.260020	4.804538
2487	3413.956442	35.988103	5.676923	0.261617	5.058278
2489	3416.028015	35.953630	5.630809	0.263828	5.028242
2491	3418.097335	35.946480	5.599107	0.264761	4.793776
2493	3420.167457	35.923258	5.547225	0.266097	4.739594
2497	3424.309170	35.822485	5.471265	0.267402	4.886773
2499	3426.381743	35.742694	5.430871	0.267607	4.732638
2501	3428.454795	35.718011	5.383589	0.267009	4.853122
2503	3430.527840	35.689913	5.334775	0.266432	4.778739
2505	3432.602190	35.626019	5.289035	0.265753	5.004844
2507	3434.675753	35.659855	5.235032	0.265321	4.653473
2509	3436.747525	35.625763	5.194975	0.265458	4.697714
2511	3438.818293	35.602472	5.154025	0.265831	4.799260
2515	3442.959213	35.575083	5.074325	0.266736	4.499879
2517	3445.028384	35.571835	5.016689	0.266930	4.902195
2519	3447.099224	35.547293	4.970733	0.267026	4.856961
2521	3449.167208	35.470694	4.932238	0.266425	4.612357
2525	3453.304288	35.378036	4.857190	0.265031	4.828466
2527	3455.371353	35.310904	4.810131	0.265073	4.645383
2529	3457.442893	35.224945	4.782015	0.266229	4.559611
2531	3459.514226	35.193531	4.742461	0.268038	4.800577
2535	3463.656695	35.129046	4.677386	0.270942	4.681526
2537	3465.726840	35.132266	4.629238	0.272449	4.500996
2539	3467.797273	35.073482	4.604080	0.273272	4.703909
2541	3469.867983	35.039720	4.563373	0.273955	4.527032
2545	3474.009416	34.923928	4.474080	0.274727	4.642093
2547	3476.082159	34.862936	4.430273	0.274120	4.677158
